# This PAR file is from software release 5.5.2 which has a bug that writes some
# extra columns related to contrast bolus parameters into the .PAR file.
# The PAR file format is still listed as V4.2 and a future software release
# should result in these contrast-related parameters being removed again.
#
#
#
# === DATA DESCRIPTION FILE ======================================================
#
# CAUTION - Investigational device.
# Limited by Federal Law to investigational use.
#
# Dataset name: E:\Dicom\\QA_FBIRN9913_09SEP2019
#
# CLINICAL TRYOUT             Research image export tool     V4.2
#
# === GENERAL INFORMATION ========================================================
#
.    Patient name                       :   QA_FBIRN9913_09SEP2019
.    Examination name                   :   QA_FBIRN9913_09SEP2019
.    Protocol name                      :   QA
.    Examination date/time              :   2019.09.09 / 09:19:30
.    Series Type                        :   Image   MRSERIES
.    Acquisition nr                     :   2
.    Reconstruction nr                  :   1
.    Scan Duration [sec]                :   4
.    Max. number of cardiac phases      :   1
.    Max. number of echoes              :   1
.    Max. number of slices/locations    :   36
.    Max. number of dynamics            :   1
.    Max. number of mixes               :   1
.    Patient position                   :   Head First Supine
.    Preparation direction              :   Anterior-Posterior
.    Technique                          :   FEEPI
.    Scan resolution  (x, y)            :   80  78
.    Scan mode                          :   MS
.    Repetition time [ms]               :   2000.000
.    FOV (ap,fh,rl) [mm]                :   240.000  144.000  240.000
.    Water Fat shift [pixels]           :   8.163
.    Angulation midslice(ap,fh,rl)[degr]:   0.000  0.000  0.000
.    Off Centre midslice(ap,fh,rl) [mm] :   10.989  -11.548  -1.056
.    Flow compensation <0=no 1=yes> ?   :   0
.    Presaturation     <0=no 1=yes> ?   :   0
.    Phase encoding velocity [cm/sec]   :   0.000000  0.000000  0.000000
.    MTC               <0=no 1=yes> ?   :   0
.    SPIR              <0=no 1=yes> ?   :   1
.    EPI factor        <0,1=no EPI>     :   39
.    Dynamic scan      <0=no 1=yes> ?   :   1
.    Diffusion         <0=no 1=yes> ?   :   0
.    Diffusion echo time [ms]           :   0.0000
.    Max. number of diffusion values    :   1
.    Max. number of gradient orients    :   1
.    Number of label types   <0=no ASL> :   0
#
# === PIXEL VALUES =============================================================
#  PV = pixel value in REC file, FP = floating point value, DV = displayed value on console
#  RS = rescale slope,           RI = rescale intercept,    SS = scale slope
#  DV = PV * RS + RI             FP = DV / (RS * SS)
#
# === IMAGE INFORMATION DEFINITION =============================================
#  The rest of this file contains ONE line per image, this line contains the following information:
#
#  slice number                             (integer)
#  echo number                              (integer)
#  dynamic scan number                      (integer)
#  cardiac phase number                     (integer)
#  image_type_mr                            (integer)
#  scanning sequence                        (integer)
#  index in REC file (in images)            (integer)
#  image pixel size (in bits)               (integer)
#  scan percentage                          (integer)
#  recon resolution (x y)                   (2*integer)
#  rescale intercept                        (float)
#  rescale slope                            (float)
#  scale slope                              (float)
#  window center                            (integer)
#  window width                             (integer)
#  image angulation (ap,fh,rl in degrees )  (3*float)
#  image offcentre (ap,fh,rl in mm )        (3*float)
#  slice thickness (in mm )                 (float)
#  slice gap (in mm )                       (float)
#  image_display_orientation                (integer)
#  slice orientation ( TRA/SAG/COR )        (integer)
#  fmri_status_indication                   (integer)
#  image_type_ed_es  (end diast/end syst)   (integer)
#  pixel spacing (x,y) (in mm)              (2*float)
#  echo_time                                (float)
#  dyn_scan_begin_time                      (float)
#  trigger_time                             (float)
#  diffusion_b_factor                       (float)
#  number of averages                       (integer)
#  image_flip_angle (in degrees)            (float)
#  cardiac frequency   (bpm)                (integer)
#  minimum RR-interval (in ms)              (integer)
#  maximum RR-interval (in ms)              (integer)
#  TURBO factor  <0=no turbo>               (integer)
#  Inversion delay (in ms)                  (float)
#  diffusion b value number    (imagekey!)  (integer)
#  gradient orientation number (imagekey!)  (integer)
#  contrast type                            (string)
#  diffusion anisotropy type                (string)
#  diffusion (ap, fh, rl)                   (3*float)
#  label type (ASL)            (imagekey!)  (integer)
#  Contrast Bolus Agent                     (string)
#  Contrast Bolus Route                     (float)
#  Contrast Bolus Volume                    (string)
#  Contrast Bolus Start Time                (string)
#  Contrast Bolus Total Dose                (float)
#  Contrast Bolus Ingredient                (string)
#  Contrast Bolus Ingredient Concentration  (float)
#
# === IMAGE INFORMATION ==========================================================
#  sl ec  dyn ph ty    idx pix scan% rec size                (re)scale              window        angulation              offcentre        thick   gap   info      spacing     echo     dtime   ttime    diff  avg  flip    freq   RR-int  turbo delay b grad cont anis         diffusion       L.ty  contagent   controute  contvolume  conttime  contdose  contingr  contingrconcen

  1   1    1  1 0 2     0  16   100   80   80     0.00000   0.75092  1.11013e-02   795  1382   0.00  -0.00  -0.00   10.99  -81.55   -1.06  4.000  0.000 0 1 0 2  3.000  3.000  35.00    0.00     0.00    0.00   1   90.00     0    0    0    39   0.0  1   1    8    0   0.000    0.000    0.000  1  0.000000  0.000000  0.000000
  2   1    1  1 0 2     1  16   100   80   80     0.00000   0.75092  1.11013e-02   828  1440   0.00  -0.00  -0.00   10.99  -77.55   -1.06  4.000  0.000 0 1 0 2  3.000  3.000  35.00    0.00     0.00    0.00   1   90.00     0    0    0    39   0.0  1   1    8    0   0.000    0.000    0.000  1  0.000000  0.000000  0.000000
  3   1    1  1 0 2     2  16   100   80   80     0.00000   0.75092  1.11013e-02   853  1483   0.00  -0.00  -0.00   10.99  -73.55   -1.06  4.000  0.000 0 1 0 2  3.000  3.000  35.00    0.00     0.00    0.00   1   90.00     0    0    0    39   0.0  1   1    8    0   0.000    0.000    0.000  1  0.000000  0.000000  0.000000
  4   1    1  1 0 2     3  16   100   80   80     0.00000   0.75092  1.11013e-02   854  1484   0.00  -0.00  -0.00   10.99  -69.55   -1.06  4.000  0.000 0 1 0 2  3.000  3.000  35.00    0.00     0.00    0.00   1   90.00     0    0    0    39   0.0  1   1    8    0   0.000    0.000    0.000  1  0.000000  0.000000  0.000000
  5   1    1  1 0 2     4  16   100   80   80     0.00000   0.75092  1.11013e-02   883  1536   0.00  -0.00  -0.00   10.99  -65.55   -1.06  4.000  0.000 0 1 0 2  3.000  3.000  35.00    0.00     0.00    0.00   1   90.00     0    0    0    39   0.0  1   1    8    0   0.000    0.000    0.000  1  0.000000  0.000000  0.000000
  6   1    1  1 0 2     5  16   100   80   80     0.00000   0.75092  1.11013e-02   915  1591   0.00  -0.00  -0.00   10.99  -61.55   -1.06  4.000  0.000 0 1 0 2  3.000  3.000  35.00    0.00     0.00    0.00   1   90.00     0    0    0    39   0.0  1   1    8    0   0.000    0.000    0.000  1  0.000000  0.000000  0.000000
  7   1    1  1 0 2     6  16   100   80   80     0.00000   0.75092  1.11013e-02   937  1630   0.00  -0.00  -0.00   10.99  -57.55   -1.06  4.000  0.000 0 1 0 2  3.000  3.000  35.00    0.00     0.00    0.00   1   90.00     0    0    0    39   0.0  1   1    8    0   0.000    0.000    0.000  1  0.000000  0.000000  0.000000
  8   1    1  1 0 2     7  16   100   80   80     0.00000   0.75092  1.11013e-02   947  1646   0.00  -0.00  -0.00   10.99  -53.55   -1.06  4.000  0.000 0 1 0 2  3.000  3.000  35.00    0.00     0.00    0.00   1   90.00     0    0    0    39   0.0  1   1    8    0   0.000    0.000    0.000  1  0.000000  0.000000  0.000000
  9   1    1  1 0 2     8  16   100   80   80     0.00000   0.75092  1.11013e-02   976  1696   0.00  -0.00  -0.00   10.99  -49.55   -1.06  4.000  0.000 0 1 0 2  3.000  3.000  35.00    0.00     0.00    0.00   1   90.00     0    0    0    39   0.0  1   1    8    0   0.000    0.000    0.000  1  0.000000  0.000000  0.000000
 10   1    1  1 0 2     9  16   100   80   80     0.00000   0.75092  1.11013e-02   979  1701   0.00  -0.00  -0.00   10.99  -45.55   -1.06  4.000  0.000 0 1 0 2  3.000  3.000  35.00    0.00     0.00    0.00   1   90.00     0    0    0    39   0.0  1   1    8    0   0.000    0.000    0.000  1  0.000000  0.000000  0.000000
 11   1    1  1 0 2    10  16   100   80   80     0.00000   0.75092  1.11013e-02   999  1736   0.00  -0.00  -0.00   10.99  -41.55   -1.06  4.000  0.000 0 1 0 2  3.000  3.000  35.00    0.00     0.00    0.00   1   90.00     0    0    0    39   0.0  1   1    8    0   0.000    0.000    0.000  1  0.000000  0.000000  0.000000
 12   1    1  1 0 2    11  16   100   80   80     0.00000   0.75092  1.11013e-02  1030  1791   0.00  -0.00  -0.00   10.99  -37.55   -1.06  4.000  0.000 0 1 0 2  3.000  3.000  35.00    0.00     0.00    0.00   1   90.00     0    0    0    39   0.0  1   1    8    0   0.000    0.000    0.000  1  0.000000  0.000000  0.000000
 13   1    1  1 0 2    12  16   100   80   80     0.00000   0.75092  1.11013e-02  1024  1780   0.00  -0.00  -0.00   10.99  -33.55   -1.06  4.000  0.000 0 1 0 2  3.000  3.000  35.00    0.00     0.00    0.00   1   90.00     0    0    0    39   0.0  1   1    8    0   0.000    0.000    0.000  1  0.000000  0.000000  0.000000
 14   1    1  1 0 2    13  16   100   80   80     0.00000   0.75092  1.11013e-02  1064  1850   0.00  -0.00  -0.00   10.99  -29.55   -1.06  4.000  0.000 0 1 0 2  3.000  3.000  35.00    0.00     0.00    0.00   1   90.00     0    0    0    39   0.0  1   1    8    0   0.000    0.000    0.000  1  0.000000  0.000000  0.000000
 15   1    1  1 0 2    14  16   100   80   80     0.00000   0.75092  1.11013e-02  1035  1800   0.00  -0.00  -0.00   10.99  -25.55   -1.06  4.000  0.000 0 1 0 2  3.000  3.000  35.00    0.00     0.00    0.00   1   90.00     0    0    0    39   0.0  1   1    8    0   0.000    0.000    0.000  1  0.000000  0.000000  0.000000
 16   1    1  1 0 2    15  16   100   80   80     0.00000   0.75092  1.11013e-02  1027  1785   0.00  -0.00  -0.00   10.99  -21.55   -1.06  4.000  0.000 0 1 0 2  3.000  3.000  35.00    0.00     0.00    0.00   1   90.00     0    0    0    39   0.0  1   1    8    0   0.000    0.000    0.000  1  0.000000  0.000000  0.000000
 17   1    1  1 0 2    16  16   100   80   80     0.00000   0.75092  1.11013e-02  1018  1769   0.00  -0.00  -0.00   10.99  -17.55   -1.06  4.000  0.000 0 1 0 2  3.000  3.000  35.00    0.00     0.00    0.00   1   90.00     0    0    0    39   0.0  1   1    8    0   0.000    0.000    0.000  1  0.000000  0.000000  0.000000
 18   1    1  1 0 2    17  16   100   80   80     0.00000   0.75092  1.11013e-02  1029  1789   0.00  -0.00  -0.00   10.99  -13.55   -1.06  4.000  0.000 0 1 0 2  3.000  3.000  35.00    0.00     0.00    0.00   1   90.00     0    0    0    39   0.0  1   1    8    0   0.000    0.000    0.000  1  0.000000  0.000000  0.000000
 19   1    1  1 0 2    18  16   100   80   80     0.00000   0.75092  1.11013e-02  1070  1860   0.00  -0.00  -0.00   10.99   -9.55   -1.06  4.000  0.000 0 1 0 2  3.000  3.000  35.00    0.00     0.00    0.00   1   90.00     0    0    0    39   0.0  1   1    8    0   0.000    0.000    0.000  1  0.000000  0.000000  0.000000
 20   1    1  1 0 2    19  16   100   80   80     0.00000   0.75092  1.11013e-02  1052  1828   0.00  -0.00  -0.00   10.99   -5.55   -1.06  4.000  0.000 0 1 0 2  3.000  3.000  35.00    0.00     0.00    0.00   1   90.00     0    0    0    39   0.0  1   1    8    0   0.000    0.000    0.000  1  0.000000  0.000000  0.000000
 21   1    1  1 0 2    20  16   100   80   80     0.00000   0.75092  1.11013e-02  1058  1839   0.00  -0.00  -0.00   10.99   -1.55   -1.06  4.000  0.000 0 1 0 2  3.000  3.000  35.00    0.00     0.00    0.00   1   90.00     0    0    0    39   0.0  1   1    8    0   0.000    0.000    0.000  1  0.000000  0.000000  0.000000
 22   1    1  1 0 2    21  16   100   80   80     0.00000   0.75092  1.11013e-02  1071  1862   0.00  -0.00  -0.00   10.99    2.45   -1.06  4.000  0.000 0 1 0 2  3.000  3.000  35.00    0.00     0.00    0.00   1   90.00     0    0    0    39   0.0  1   1    8    0   0.000    0.000    0.000  1  0.000000  0.000000  0.000000
 23   1    1  1 0 2    22  16   100   80   80     0.00000   0.75092  1.11013e-02  1059  1841   0.00  -0.00  -0.00   10.99    6.45   -1.06  4.000  0.000 0 1 0 2  3.000  3.000  35.00    0.00     0.00    0.00   1   90.00     0    0    0    39   0.0  1   1    8    0   0.000    0.000    0.000  1  0.000000  0.000000  0.000000
 24   1    1  1 0 2    23  16   100   80   80     0.00000   0.75092  1.11013e-02  1049  1823   0.00  -0.00  -0.00   10.99   10.45   -1.06  4.000  0.000 0 1 0 2  3.000  3.000  35.00    0.00     0.00    0.00   1   90.00     0    0    0    39   0.0  1   1    8    0   0.000    0.000    0.000  1  0.000000  0.000000  0.000000
 25   1    1  1 0 2    24  16   100   80   80     0.00000   0.75092  1.11013e-02  1052  1828   0.00  -0.00  -0.00   10.99   14.45   -1.06  4.000  0.000 0 1 0 2  3.000  3.000  35.00    0.00     0.00    0.00   1   90.00     0    0    0    39   0.0  1   1    8    0   0.000    0.000    0.000  1  0.000000  0.000000  0.000000
 26   1    1  1 0 2    25  16   100   80   80     0.00000   0.75092  1.11013e-02  1046  1818   0.00  -0.00  -0.00   10.99   18.45   -1.06  4.000  0.000 0 1 0 2  3.000  3.000  35.00    0.00     0.00    0.00   1   90.00     0    0    0    39   0.0  1   1    8    0   0.000    0.000    0.000  1  0.000000  0.000000  0.000000
 27   1    1  1 0 2    26  16   100   80   80     0.00000   0.75092  1.11013e-02  1016  1766   0.00  -0.00  -0.00   10.99   22.45   -1.06  4.000  0.000 0 1 0 2  3.000  3.000  35.00    0.00     0.00    0.00   1   90.00     0    0    0    39   0.0  1   1    8    0   0.000    0.000    0.000  1  0.000000  0.000000  0.000000
 28   1    1  1 0 2    27  16   100   80   80     0.00000   0.75092  1.11013e-02  1028  1787   0.00  -0.00  -0.00   10.99   26.45   -1.06  4.000  0.000 0 1 0 2  3.000  3.000  35.00    0.00     0.00    0.00   1   90.00     0    0    0    39   0.0  1   1    8    0   0.000    0.000    0.000  1  0.000000  0.000000  0.000000
 29   1    1  1 0 2    28  16   100   80   80     0.00000   0.75092  1.11013e-02   991  1723   0.00  -0.00  -0.00   10.99   30.45   -1.06  4.000  0.000 0 1 0 2  3.000  3.000  35.00    0.00     0.00    0.00   1   90.00     0    0    0    39   0.0  1   1    8    0   0.000    0.000    0.000  1  0.000000  0.000000  0.000000
 30   1    1  1 0 2    29  16   100   80   80     0.00000   0.75092  1.11013e-02   962  1672   0.00  -0.00  -0.00   10.99   34.45   -1.06  4.000  0.000 0 1 0 2  3.000  3.000  35.00    0.00     0.00    0.00   1   90.00     0    0    0    39   0.0  1   1    8    0   0.000    0.000    0.000  1  0.000000  0.000000  0.000000
 31   1    1  1 0 2    30  16   100   80   80     0.00000   0.75092  1.11013e-02   967  1681   0.00  -0.00  -0.00   10.99   38.45   -1.06  4.000  0.000 0 1 0 2  3.000  3.000  35.00    0.00     0.00    0.00   1   90.00     0    0    0    39   0.0  1   1    8    0   0.000    0.000    0.000  1  0.000000  0.000000  0.000000
 32   1    1  1 0 2    31  16   100   80   80     0.00000   0.75092  1.11013e-02   941  1637   0.00  -0.00  -0.00   10.99   42.45   -1.06  4.000  0.000 0 1 0 2  3.000  3.000  35.00    0.00     0.00    0.00   1   90.00     0    0    0    39   0.0  1   1    8    0   0.000    0.000    0.000  1  0.000000  0.000000  0.000000
 33   1    1  1 0 2    32  16   100   80   80     0.00000   0.75092  1.11013e-02   949  1649   0.00  -0.00  -0.00   10.99   46.45   -1.06  4.000  0.000 0 1 0 2  3.000  3.000  35.00    0.00     0.00    0.00   1   90.00     0    0    0    39   0.0  1   1    8    0   0.000    0.000    0.000  1  0.000000  0.000000  0.000000
 34   1    1  1 0 2    33  16   100   80   80     0.00000   0.75092  1.11013e-02   916  1593   0.00  -0.00  -0.00   10.99   50.45   -1.06  4.000  0.000 0 1 0 2  3.000  3.000  35.00    0.00     0.00    0.00   1   90.00     0    0    0    39   0.0  1   1    8    0   0.000    0.000    0.000  1  0.000000  0.000000  0.000000
 35   1    1  1 0 2    34  16   100   80   80     0.00000   0.75092  1.11013e-02   914  1588   0.00  -0.00  -0.00   10.99   54.45   -1.06  4.000  0.000 0 1 0 2  3.000  3.000  35.00    0.00     0.00    0.00   1   90.00     0    0    0    39   0.0  1   1    8    0   0.000    0.000    0.000  1  0.000000  0.000000  0.000000
 36   1    1  1 0 2    35  16   100   80   80     0.00000   0.75092  1.11013e-02   914  1588   0.00  -0.00  -0.00   10.99   58.45   -1.06  4.000  0.000 0 1 0 2  3.000  3.000  35.00    0.00     0.00    0.00   1   90.00     0    0    0    39   0.0  1   1    8    0   0.000    0.000    0.000  1  0.000000  0.000000  0.000000

# === END OF DATA DESCRIPTION FILE ===============================================
